##TITLE= D&G Grape (SofDrink)
##JCAMP-DX= 4.24 $$Exported PE UV WinLab Data File
##DATA TYPE= UV/VIS SPECTRUM
##ORIGIN= Chem. Dept. UWI, JAMAICA
##OWNER= public domain
##DATE= 97/07/01
##TIME= 15:34:56.00
##SPECTROMETER/DATA SYSTEM= PERKIN-ELMER LAMBDA 19 UV/VIS/NIR UV
##RESOLUTION= 1.000000
##DELTAX= -1.000000
##XUNITS= NANOMETERS
##YUNITS= ABSORBANCE
##XFACTOR= 1.00
##YFACTOR= .00000011920928955078
##FIRSTX= 800.00
##LASTX= 350.00
##NPOINTS= 451
##FIRSTY= .31
##MAXY= .034421
##MINY= .76
##XYDATA= (X++(Y..Y))
  800.000000  288745   289474   289986   292218   293048   
  795.000000  292486   294550   297049   297309   299205   
  790.000000  300531   300958   303181   305253   304909   
  785.000000  307804   308953   310454   311125   313147   
  780.000000  314414   316956   317425   319665   320907   
  775.000000  321687   323331   323121   324908   327433   
  770.000000  327936   329287   331946   331719   333674   
  765.000000  335318   334655   337449   338296   339236   
  760.000000  340972   340670   342281   342750   345158   
  755.000000  343673   346374   347264   348010   347834   
  750.000000  348673   349931   351240   352154   352574   
  745.000000  353303   354922   355988   356583   356676   
  740.000000  356952   357112   355937   355761   353924   
  735.000000  352649   352095   348396   344730   341475   
  730.000000  338170   335671   332609   331568   330302   
  725.000000  329169   328607   327542   326284   325017   
  720.000000  325176   325495   324732   324044   323968   
  715.000000  323549   323322   323859   323180   323616   
  710.000000  325059   324656   326670   327701   328431   
  705.000000  329966   330663   331904   333615   335964   
  700.000000  337407   339060   340645   343589   345879   
  695.000000  347591   350695   353236   355963   358999   
  690.000000  362162   365735   369552   373780   376842   
  685.000000  381984   386052   391706   397377   401848   
  680.000000  408442   416151   423524   432987   441208   
  675.000000  450620   461198   473109   486758   500247   
  670.000000  517032   533482   551526   572162   594509   
  665.000000  618828   644690   672859   702462   736419   
  660.000000  772340   810902   852719   896936   943727   
  655.000000  994008   1047897  1103673  1164767  1226935  
  650.000000  1292576  1359341  1430250  1500546  1571958  
  645.000000  1645619  1718004  1790121  1860376  1928936  
  640.000000  1995759  2058355  2116891  2169378  2216967  
  635.000000  2259690  2293823  2322445  2344189  2357996  
  630.000000  2365655  2365043  2359271  2346512  2328108  
  625.000000  2303688  2275075  2241797  2205215  2165318  
  620.000000  2123300  2078790  2033282  1988570  1943616  
  615.000000  1899022  1855628  1812946  1771834  1734035  
  610.000000  1697880  1664351  1634076  1607878  1584340  
  605.000000  1564509  1548672  1536349  1529546  1525142  
  600.000000  1525477  1530519  1540308  1554569  1572982  
  595.000000  1595598  1624287  1656599  1694801  1736593  
  590.000000  1784366  1836728  1893083  1953674  2019507  
  585.000000  2088638  2162139  2239096  2319795  2404578  
  580.000000  2491778  2581939  2673089  2767268  2862839  
  575.000000  2959938  3056792  3153530  3250938  3348724  
  570.000000  3444933  3542350  3637813  3731555  3824711  
  565.000000  3917648  4008681  4099278  4188760  4278316  
  560.000000  4364853  4452011  4538531  4623441  4707067  
  555.000000  4789317  4871869  4952157  5032327  5110148  
  550.000000  5187667  5263374  5336808  5408983  5479154  
  545.000000  5545760  5612231  5675590  5736718  5795279  
  540.000000  5851759  5905388  5956969  6007116  6053438  
  535.000000  6098133  6139195  6178915  6214902  6248280  
  530.000000  6279478  6305977  6330195  6349657  6366040  
  525.000000  6378925  6387884  6394225  6395240  6393127  
  520.000000  6387447  6377616  6364119  6347803  6328551  
  515.000000  6305818  6280409  6251611  6219868  6186633  
  510.000000  6149706  6111303  6070224  6026888  5981019  
  505.000000  5933590  5883510  5832281  5779013  5722994  
  500.000000  5665037  5604916  5544376  5482979  5419830  
  495.000000  5354038  5289806  5223939  5156511  5088471  
  490.000000  5019391  4948583  4878127  4808787  4738088  
  485.000000  4665803  4594693  4521418  4450937  4377763  
  480.000000  4306511  4234830  4164089  4092307  4021776  
  475.000000  3951588  3882382  3814175  3746319  3678011  
  470.000000  3612118  3547929  3484033  3421395  3360385  
  465.000000  3302386  3244831  3188947  3134941  3082730  
  460.000000  3031987  2984239  2938178  2894423  2852580  
  455.000000  2813137  2777041  2742329  2709823  2678936  
  450.000000  2651564  2625744  2602398  2580110  2560699  
  445.000000  2543242  2526557  2511181  2496719  2483767  
  440.000000  2472912  2460698  2450372  2439894  2430902  
  435.000000  2421909  2411809  2403236  2395309  2387717  
  430.000000  2381786  2374908  2369413  2366905  2363466  
  425.000000  2362123  2361125  2361117  2364967  2367945  
  420.000000  2373071  2377701  2384219  2392046  2398413  
  415.000000  2405182  2412195  2417438  2422647  2427647  
  410.000000  2427840  2429341  2426850  2424644  2418939  
  405.000000  2411792  2405014  2395737  2387197  2377877  
  400.000000  2367509  2360379  2351822  2344356  2337553  
  395.000000  2332403  2328116  2324299  2323519  2321481  
  390.000000  2323418  2322194  2323628  2325759  2327403  
  385.000000  2330129  2333569  2336513  2339516  2343845  
  380.000000  2347519  2343744  2344835  2347611  2351889  
  375.000000  2355018  2357468  2360806  2361503  2363055  
  370.000000  2364078  2363843  2364355  2365101  2365848  
  365.000000  2365873  2369665  2370185  2375973  2380276  
  360.000000  2386819  2397213  2409964  2426103  2443283  
  355.000000  2462896  2489957  2518512  2552218  2590168  
  350.000000  2636565  
##END= 
